0
1.91
1.91
1.92
1.92
1.92
1.93
1.92
1.93
1.92
1.91
1.9
1.9
1.88
1.88
1.87
1.88
1.88
1.88
1.89
1.9
1.91
1.93
1.94
1.95
1.96
2.02
2.07
2.07
2.03
1.99
1.98
1.95
1.88
1.77
1.7
1.69
1.74
1.78
1.81
1.83
1.82
1.8
1.77
1.79
1.8
1.79
1.73
1.64
1.64
1.86
2.1
2.23
2.26
2.29
2.14
1.94
1.79
1.61
1.52
1.66
1.85
2.06
2.24
2.22
2.01
1.73
1.61
1.79
2.13
2.37
2.29
1.95
1.58
1.41
1.41
1.59
1.77
1.71
1.75
1.87
1.96
2.22
2.56
2.93
3.6
4.19
4.18
3.77
3.33
2.74
2.15
1.56
1.15
1.06
1.11
1.16
1.21
1.37
1.47
1.39
1.28
1.3
1.44
1.66
1.94
2.18
2.29
2.27
2.19
2.16
2.22
2.39
2.59
2.78
2.97
2.92
2.09
1.15
0.7
0.92
1.22
1.48
1.63
1.76
1.77
1.71
1.77
1.75
1.8
1.84
1.77
1.7
1.64
1.62
1.67
1.76
1.82
1.82
1.82
1.87
1.94
1.99
2.05
2.07
2.13
2.15
2.08
2.03
2.04
2.03
2.04
2.01
1.96
1.93
1.92
1.91
1.86
1.75
1.71
1.72
1.76
1.81
1.82
1.82
1.86
1.91
1.96
2
2.03
2.07
2.11
2.09
2.01
1.96
1.93
1.91
1.93
1.95
1.97
1.97
1.96
1.9
1.78
1.72
1.69
1.74
1.82
1.85
1.87
1.89
1.93
1.96
1.97
1.98
2
2.06
2.12
2.07
2
1.97
1.97
1.97
1.97
1.99
1.99
1.92
1.84
1.79
1.75
1.74
1.72
1.71
1.83
1.89
1.89
1.82
1.83
1.91
1.97
2.02
2.09
2.15
2.12
2.01
1.94
1.93
1.95
1.98
1.94
1.81
1.78
1.72
1.6
1.65
1.93
2.28
2.75
3.33
3.64
3.44
3.06
2.75
2.48
2.22
1.93
1.65
1.43
1.16
0.81
0.47
0.45
1.05
1.61
1.73
1.74
1.79
1.89
1.92
1.77
1.78
1.87
1.91
1.89
1.88
1.83
1.82
1.83
1.93
1.93
1.81
1.77
1.86
2.01
2.12
2.12
2.05
1.97
1.93
1.93
1.94
1.94
1.95
1.96
1.98
2.01
1.98
1.96
1.96
1.96
1.91
1.83
1.84
1.84
1.88
1.89
1.87
1.85
1.84
1.87
1.89
1.89
1.91
1.95
1.99
2
1.98
1.96
1.95
2
2.05
2.05
1.98
1.96
1.94
1.92
1.91
1.89
1.89
1.9
1.9
1.87
1.83
1.83
1.85
1.89
1.93
1.93
1.92
1.93
1.95
1.96
1.96
1.98
2
2
1.98
1.95
1.93
1.93
1.92
1.92
1.92
1.93
1.9
1.85
1.83
1.84
1.84
1.85
1.87
1.86
1.97
2
1.99
1.96
1.95
1.96
1.96
1.96
1.98
1.97
1.96
1.95
1.95
1.92
1.91
1.92
1.93
1.87
1.86
1.85
1.84
1.84
1.86
1.87
1.87
1.89
1.9
1.93
1.94
1.93
1.93
1.97
1.96
1.96
1.94
1.95
1.95
1.93
1.93
1.92
1.9
1.89
1.91
1.89
1.87
1.88
1.88
1.87
1.87
1.9
1.9
1.92
1.94
1.95
1.95
1.96
1.97
1.96
1.96
1.96
1.95
1.93
1.93
1.92
1.88
1.87
1.87
1.86
1.87
1.89
1.87
1.87
1.89
1.91
1.91
1.92
1.94
1.94
1.94
1.96
1.95
1.95
1.97
1.97
1.94
1.93
1.93
1.91
1.9
1.92
1.9
1.87
1.88
1.89
1.86
1.85
1.88
1.88
1.88
1.91
1.9
1.89
1.91
1.93
1.93
1.94
1.96
1.97
1.96
1.96
1.95
1.91
1.92
1.94
1.92
1.89
1.89
1.88
1.87
1.89
1.89
1.89
1.89
1.91
1.9
1.9
1.92
1.92
1.93
1.94
1.96
1.95
1.95
1.96
1.95
1.95
1.96
1.94
1.93
1.95
1.93
1.91
1.91
1.93
1.9
1.88
1.89
1.9
1.89
1.89
1.9
1.89
1.89
1.91
1.94
1.94
1.94
1.94
1.94
1.94
1.94
1.92
1.9
1.91
1.92
1.91
1.92
1.93
1.92
1.91
1.93
1.91
1.9
1.91
1.92
1.92
1.93
1.94
1.92
1.92
1.94
1.94
1.92
1.95
1.93
1.92
1.91
1.92
1.92
1.95
1.97
1.96
1.94
1.96
1.99
1.97
1.91
1.85
1.87
1.9
1.95
1.95
1.93
1.94
1.97
1.97
1.93
1.9
1.89
1.93
1.97
1.96
1.92
1.87
1.9
1.94
1.91
1.92
1.9
1.87
1.9
1.91
1.93
1.91
1.92
1.87
1.87
1.92
1.91
1.94
1.89
1.89
1.89
1.88
1.92
1.88
1.88
1.9
1.9
1.9
1.87
1.9
1.89
1.9
1.91
1.9
1.93
1.94
1.91
1.9
1.88
1.92
1.9
1.91
1.92
1.94
1.9
1.88
1.9
1.89
1.88
1.92
1.91
1.91
1.9
1.9
1.93
1.9
1.95
1.92
1.91
1.93
1.93
1.95
1.92
1.93
1.92
1.92
1.94
1.93
1.92
1.87
1.92
1.92
1.9
1.94
1.89
1.88
1.88
1.89
1.92
1.92
1.97
2
1.96
1.98
1.94
1.92
1.92
1.92
1.94
1.91
1.93
1.91
1.9
1.94
1.92
1.95
1.93
1.95
1.94
1.95
2.06
2.02
2.07
2.14
2.19
2.25
2.31
2.39
2.5
2.48
2.38
2.14
1.95
1.82
1.81
1.88
1.9
1.87
1.86
1.84
1.83
1.84
1.86
1.86
1.83
1.85
1.85
1.84
1.82
1.85
1.89
1.91
1.96
1.96
1.9
1.86
1.84
1.85
1.78
1.74
1.74
1.75
1.77
1.78
1.78
1.77
1.74
1.73
1.67
1.61
1.53
1.52
1.52
1.51
1.52
1.53
1.52
1.37
1.15
0.94
0.96
1.29
1.66
1.93
2.11
2.06
2.08
2.1
2.06
1.98
1.94
2.03
2.17
2.23
2.17
2.12
2.14
2.13
2.11
2.08
2.04
1.99
1.96
2
2.08
2.09
2.04
1.97
1.93
1.94
1.97
2.01
1.99
1.96
1.96
1.97
1.97
1.96
1.96
1.99
1.98
2.02
1.96
1.94
1.97
1.97
2
1.97
1.96
1.95
1.95
1.96
1.94
1.93
1.92
1.96
1.95
1.91
1.92
1.92
1.93
1.96
1.93
1.92
1.92
1.93
1.94
1.93
1.96
1.94
1.95
1.94
1.93
1.95
1.93
1.95
1.94
1.92
1.95
1.92
1.9
1.91
1.93
1.94
1.91
1.92
1.91
1.94
1.93
1.93
1.94
1.94
1.94
1.93
1.91
1.96
1.92
1.92
1.94
1.93
1.92
1.9
1.92
1.92
1.9
1.95
1.92
1.92
1.92
1.92
1.93
1.91
1.92
1.92
1.92
1.96
1.93
1.91
1.92
1.92
1.94
1.94
1.93
1.96
1.93
1.93
1.93
1.92
1.93
1.92
1.92
1.92
1.91
1.9
1.91
1.91
1.91
1.93
1.93
1.91
1.91
1.91
1.94
1.92
1.92
1.93
1.92
1.95
1.94
1.93
1.93
1.93
1.94
1.92
1.92
1.93
1.92
1.93
1.92
1.91
1.91
1.91
1.92
1.91
1.92
1.92
1.9
1.92
1.91
1.91
1.93
1.93
1.93
1.93
1.94
1.93
1.92
1.93
1.93
1.95
1.92
1.91
1.91
1.91
1.94
1.92
1.9
1.91
1.9
1.93
1.93
1.93
1.95
1.96
1.94
1.93
1.92
1.93
1.93
1.93
1.91
1.91
1.91
1.9
1.92
1.92
1.91
1.92
1.91
1.91
1.9
1.92
1.92
1.91
1.92
1.91
1.93
1.91
1.92
1.93
1.94
1.96
1.94
1.92
1.91
1.91
1.93
1.91
1.92
1.92
1.91
1.92
1.92
1.9
1.91
1.91
1.92
1.92
1.92
1.92
1.91
1.93
1.93
1.93
1.92
1.93
1.93
1.92
1.93
1.93
1.92
1.92
1.91
1.95
1.91
1.91
1.92
1.91
1.94
1.91
1.92
1.91
1.91
1.93
1.92
1.92
1.92
1.91
1.93
1.92
1.91
1.91
1.92
1.92
1.92
1.94
1.92
1.91
1.92
1.91
1.91
1.92
1.93
1.92
1.91
1.93
1.93
1.91
1.92
1.92
1.94
1.92
1.92
1.92
1.91
1.95
1.92
1.91
1.91
1.92
1.93
1.92
1.92
1.93
1.9
1.91
1.91
1.9
1.9
1.92
1.92
1.91
1.92
1.93
1.91
1.93
1.92
1.93
1.91
1.91
1.91
1.92
1.95
1.93
1.92
1.91
1.91
1.94
1.92
1.92
1.93
1.92
1.94
1.95
1.91
1.91
1.92
1.92
1.92
1.92
1.92
1.9
1.92
1.92
1.91
1.9
1.91
1.92
1.91
1.92
1.93
1.89
1.9
1.9
1.9
1.91
1.91
1.92
1.91
1.92
1.91
1.9
1.85
1.82
1.85
1.85
1.85
1.82
1.84
1.86
1.85
1.85
1.85
1.85
1.85
1.84
1.85
1.87
1.88
1.9
1.9
1.88
1.89
1.89
1.9
1.9
1.91
1.92
1.9
1.9
1.89
1.9
1.91
1.92
1.88
1.91
1.94
1.92
1.91
1.92
1.94
1.96
1.96
1.94
1.94
1.93
1.95
1.93
1.92
1.94
1.93
1.93
1.92
1.92
1.93
1.92
1.94
1.93
1.91
1.91
1.9
1.9
1.91
1.93
1.94
1.92
1.95
1.92
1.93
1.91
1.91
1.92
1.93
1.96
1.94
1.92
1.93
1.93
1.97
1.92
1.93
1.94
1.93
1.93
1.89
1.87
1.87
1.9
1.86
1.85
1.85
1.86
1.87
1.9
1.9
1.93
1.94
1.93
1.92
1.91
1.92
1.92
1.94
1.98
2.02
2.11
2.12
2.13
2.17
2.2
2.26
2.25
2.24
2.25
2.24
2.27
2.21
2.18
2.02
1.74
1.56
1.53
1.58
1.63
1.69
1.76
1.84
1.94
2.04
2.15
2.28
2.38
2.2
1.83
1.49
1.36
1.59
1.72
1.73
1.71
1.62
1.62
1.93
2.04
1.96
1.9
1.92
1.94
1.82
1.73
1.74
1.85
1.97
1.91
1.75
1.71
1.84
1.99
1.91
1.98
1.98
1.96
1.93
1.84
1.84
1.9
1.98
2.06
2.01
1.91
1.85
1.86
1.85
1.86
1.9
1.91
1.91
1.9
1.89
1.86
1.87
1.92
1.95
1.93
1.94
1.92
1.9
1.91
1.93
1.94
1.95
1.96
1.96
1.92
1.92
1.92
1.92
1.94
1.94
1.92
1.89
1.89
1.88
1.88
1.9
1.91
1.91
1.92
1.94
1.92
1.91
1.95
1.95
1.93
1.97
1.98
1.99
1.99
1.98
1.99
1.94
1.94
1.91
1.89
1.9
1.89
1.88
1.91
1.94
1.92
1.85
1.87
1.97
2.18
2.53
2.91
3.14
2.89
2.3
1.6
1.13
1.23
1.4
1.34
1.57
1.92
1.77
1.66
1.95
2.02
1.85
1.81
1.86
1.91
1.93
1.89
1.81
1.74
1.75
1.84
1.92
1.99
1.99
1.94
1.87
1.87
1.94
2
2.04
1.97
1.95
1.94
1.9
1.85
1.83
1.89
1.9
1.89
1.85
1.78
1.8
1.84
1.91
1.94
1.92
1.95
1.93
1.91
1.91
1.92
1.95
1.99
2.03
1.97
1.91
1.89
1.9
1.92
1.96
1.95
1.95
1.92
1.92
1.9
1.95
2
2
2.01
1.96
1.89
1.83
1.84
1.95
1.96
1.98
1.99
1.93
1.87
1.8
1.87
2
2.06
2.08
2
1.91
1.8
1.77
1.85
1.85
1.73
1.69
1.75
1.88
1.96
2
1.97
1.91
1.86
1.83
1.88
1.98
2.05
2.06
1.97
1.89
1.84
1.85
1.88
1.91
1.95
1.9
1.84
1.81
1.82
1.86
1.86
1.94
1.95
1.9
1.89
1.89
1.85
1.91
1.97
1.99
1.96
1.94
1.94
1.92
1.94
1.94
1.95
1.94
1.94
1.91
1.87
1.88
1.9
1.92
1.93
1.91
1.92
1.88
1.89
1.9
1.89
1.93
1.93
1.93
1.94
1.93
1.96
1.94
1.95
1.96
1.94
1.94
1.94
1.95
1.94
1.93
1.91
1.88
1.88
1.88
1.88
1.89
1.88
1.89
1.89
1.9
1.9
1.93
1.96
1.94
1.92
1.92
1.92
1.94
1.92
1.93
1.93
1.93
1.95
1.92
1.9
1.9
1.89
1.91
1.9
1.9
1.9
1.88
1.9
1.91
1.89
1.9
1.92
1.91
1.93
1.91
1.93
1.92
1.95
1.96
1.95
1.94
1.9
1.93
1.93
1.95
1.92
1.89
1.89
1.89
1.89
1.88
1.89
1.89
1.89
1.93
1.93
1.9
1.91
1.92
1.94
1.94
1.95
1.93
1.91
1.93
1.93
1.92
1.93
1.93
1.92
1.91
1.92
1.93
1.9
1.92
1.91
1.91
1.9
1.9
1.89
1.9
1.89
1.92
1.9
1.91
1.92
1.95
1.92
1.94
1.96
1.92
1.95
1.94
1.91
1.91
1.9
1.93
1.9
1.9
1.91
1.9
1.92
1.91
1.9
1.91
1.92
1.92
1.92
1.92
1.91
1.91
1.93
1.93
1.93
1.93
1.91
1.91
1.91
1.93
1.92
1.91
1.92
1.91
1.92
1.9
1.9
1.9
1.91
1.94
1.91
1.9
1.9
1.91
1.91
1.91
1.93
1.92
1.91
1.93
1.93
1.93
1.93
1.93
1.91
1.91
1.92
1.91
1.89
1.91
1.9
1.91
1.9
1.91
1.9
1.92
1.95
1.92
1.91
1.92
1.92
1.94
1.92
1.93
1.93
1.93
1.96
1.92
1.91
1.91
1.93
1.9
1.91
1.92
1.91
1.91
1.92
1.9
1.91
1.91
1.91
1.91
1.91
1.92
1.91
1.91
1.94
1.93
1.95
1.93
1.93
1.92
1.93
1.96
1.93
1.92
1.96
1.91
1.92
1.89
1.9
1.9
1.9
1.92
1.9
1.88
1.9
1.87
1.91
1.91
1.92
1.93
1.91
1.93
1.92
1.92
1.93
1.92
1.9
1.91
1.93
1.92
1.9
1.92
1.92
1.92
1.91
1.92
1.9
1.91
1.96
1.92
1.91
1.92
1.92
1.92
1.92
1.93
1.94
1.92
1.94
1.92
1.91
1.92
1.92
1.92
1.92
1.93
1.92
1.91
1.92
1.91
1.91
1.91
1.9
1.89
1.91
1.94
1.92
1.92
1.94
1.94
1.93
1.93
1.93
1.93
1.93
1.96
1.92
1.9
1.91
1.9
1.92
1.9
1.91
1.91
1.9
1.93
1.91
1.9
1.94
1.9
1.9
1.91
1.92
1.93
1.92
1.94
1.92
1.91
1.93
1.93
1.93
1.94
1.88
1.91
1.9
1.91
1.9
1.95
1.91
1.91
1.9
1.9
1.93
1.92
1.92
1.93
1.92
1.94
1.92
1.91
1.93
1.92
1.94
1.92
1.91
1.9
1.91
1.92
1.91
1.91
1.93
1.95
1.91
1.91
1.92
1.91
1.92
1.92
1.92
1.94
1.92
1.93
1.92
1.93
1.96
1.92
1.93
1.92
1.92
1.91
1.91
1.91
1.91
1.91
1.91
1.9
1.9
1.91
1.89
1.91
1.91
1.89
1.9
1.91
1.9
1.91
1.92
1.92
1.9
1.92
1.91
1.9
1.9
1.92
1.91
1.92
1.95
1.92
1.91
1.92
1.91
1.93
1.91
1.91
1.9
1.91
1.96
1.91
1.91
1.92
1.92
1.92
1.92
1.92
1.92
1.92
1.94
1.93
1.92
1.92
1.91
1.91
1.92
1.93
1.92
1.91
1.93
1.92
1.93
1.93
1.91
1.91
1.91
1.95
1.93
1.92
1.92
1.92
1.95
1.94
1.91
1.92
1.91
1.94
1.92
1.91
1.92
1.92
1.92
1.92
1.92
1.94
1.87
1.92
1.91
1.91
1.92
1.92
1.92
1.91
1.92
1.92
1.91
1.93
1.92
1.91
1.91
1.92
1.92
1.91
1.94
1.91
1.91
1.91
1.91
1.94
1.91
1.91
1.92
1.92
1.94
1.92
1.91
1.91
1.92
1.92
1.91
1.92
1.92
1.91
1.92
1.91
1.91
1.92
1.92
1.92
1.92
1.93
1.92
1.9
1.93
1.92
1.91
1.9
1.95
1.9
1.9
1.94
1.88
1.9
1.91
1.92
1.92
1.92
1.92
1.92
1.91
1.95
1.92
1.9
1.91
1.92
1.93
1.91
1.93
1.93
1.94
1.93
1.92
1.91
1.92
1.92
1.92
1.92
1.94
1.93
1.92
1.93
1.93
1.94
1.91
1.92
1.91
1.91
1.95
1.92
1.91
1.93
1.92
1.93
1.91
1.92
1.92
1.91
1.93
1.93
1.91
1.92
1.92
1.92
1.91
1.91
1.92
1.9
1.92
1.91
1.9
1.91
1.92
1.9
1.89
1.91
1.89
1.88
1.88
1.88
1.9
1.87
1.87
1.88
1.89
1.92
1.9
1.89
1.9
1.9
1.91
1.9
1.92
1.94
1.93
1.94
1.92
1.93
1.92
1.92
1.93
1.93
1.94
1.94
1.92
1.93
1.93
1.95
1.94
1.93
1.94
1.94
1.97
1.95
1.94
1.95
1.91
1.97
1.95
1.96
1.96
1.96
1.99
1.98
1.98
1.99
1.96
1.93
1.88
1.89
1.85
1.88
1.91
1.9
1.87
1.88
1.89
1.88
1.88
1.9
1.9
1.88
1.91
1.9
1.89
1.89
1.94
1.91
1.9
1.93
1.91
1.88
1.89
1.9
1.92
1.91
1.91
1.9
1.89
1.92
1.9
1.89
1.91
1.91
1.92
1.91
1.91
1.95
1.9
1.93
1.92
1.91
1.92
1.92
1.91
1.91
1.93
1.93
1.92
1.93
1.92
1.92
1.9
1.91
1.91
1.92
1.94
1.91
1.9
1.91
1.9
1.92
1.91
1.92
1.92
1.89
1.91
1.89
1.88
1.91
1.89
1.89
1.88
1.89
1.89
1.89
1.91
1.91
1.9
1.9
1.91
1.91
1.92
1.95
1.94
1.93
1.93
1.93
1.95
1.94
1.94
1.93
1.93
1.96
1.94
1.94
1.95
1.94
1.96
1.94
1.94
1.95
1.94
1.96
1.97
1.97
1.97
1.98
1.96
1.94
1.93
1.92
1.9
1.91
1.9
1.89
1.89
1.89
1.9
1.9
1.93
1.9
1.88
1.92
1.9
1.91
1.9
1.91
1.9
1.88
1.91
1.89
1.89
1.91
1.91
1.9
1.88
1.9
1.9
1.9
1.93
1.92
1.94
1.91
1.91
1.9
1.9
1.93
1.92
1.91
1.9
1.91
1.93
1.92
1.92
1.91
1.91
1.95
1.92
1.9
1.92
1.92
1.94
1.92
1.92
1.91
1.9
1.95
1.92
1.9
1.9
1.9
1.92
1.91
1.91
1.91
1.89
1.9
1.89
1.89
1.88
1.89
1.89
1.89
1.9
1.95
1.89
1.94
1.92
1.92
1.92
1.92
1.92
1.92
1.96
1.95
1.93
1.93
1.93
1.95
1.93
1.93
1.94
1.94
1.96
1.94
1.93
1.94
1.94
1.95
1.95
1.95
1.96
1.96
1.98
1.97
1.97
1.97
1.95
1.94
1.92
1.95
1.9
1.89
1.9
1.89
1.9
1.89
1.9
1.9
1.9
1.93
1.9
1.89
1.9
1.9
1.92
1.9
1.9
1.9
1.88
1.92
1.91
1.9
1.91
1.91
1.91
1.91
1.92
1.92
1.91
1.94
1.92
1.9
1.91
1.91
1.9
1.91
1.94
1.93
1.9
1.95
1.9
1.91
1.9
1.91
1.91
1.91
1.96
1.92
1.9
1.92
1.92
1.92
1.92
1.92
1.91
1.9
1.91
1.91
1.9
1.91
1.91
1.9
1.89
1.91
1.91
1.89
1.91
1.89
1.89
1.92
1.92
1.88
1.88
1.92
1.9
1.87
1.9
1.9
1.92
1.92
1.92
1.93
1.92
1.93
1.92
1.92
1.93
1.93
1.93
1.93
1.93
1.94
1.9
1.95
1.94
1.94
1.94
1.94
1.94
1.96
1.97
1.96
1.95
1.96
1.99
1.98
1.97
1.98
1.98
1.96
1.97
1.92
1.88
1.88
1.88
1.89
1.89
1.9
1.9
1.89
1.91
1.9
1.87
1.91
1.9
1.9
1.9
1.93
1.91
1.89
1.91
1.91
1.93
1.89
1.89
1.9
1.9
1.94
1.92
1.92
1.91
1.9
1.9
1.91
1.92
1.94
1.91
1.93
1.91
1.89
1.91
1.91
1.91
1.91
1.92
1.92
1.89
1.92
1.91
1.91
1.92
1.92
1.91
1.9
1.93
1.92
1.89
1.91
1.92
1.91
1.87
1.84
1.86
1.9
1.94
1.84
1.92
1.86
1.84
1.91
1.89
1.89
1.91
1.95
1.93
1.87
1.96
1.89
1.89
1.96
1.96
1.94
1.92
1.97
1.93
1.88
1.99
1.92
1.92
1.96
1.96
1.96
1.92
1.99
1.93
1.9
1.99
1.95
1.93
1.95
1.98
1.97
1.92
2.02
1.96
1.95
2.01
1.98
1.95
1.92
1.96
1.93
1.86
1.94
1.87
1.87
1.91
1.91
1.92
1.89
1.94
1.87
1.84
1.96
1.88
1.88
1.92
1.94
1.94
1.87
1.96
1.88
1.85
1.95
1.9
1.89
1.9
1.94
1.92
1.87
1.96
1.9
1.87
1.94
1.92
1.9
1.9
1.96
1.92
1.86
1.96
1.88
1.86
1.92
1.93
1.93
1.88
1.96
1.89
1.84
1.96
1.89
1.88
1.92
1.96
1.94
1.88
1.98
1.89
1.86
1.95
1.91
1.9
1.94
1.96
1.95
1.89
1.97
1.9
1.86
1.96
1.9
1.9
1.92
1.91
1.96
1.89
1.96
1.9
1.87
1.96
1.9
1.9
1.93
1.95
1.95
1.89
1.95
1.9
1.85
2
1.92
1.88
1.91
1.95
1.94
1.88
1.96
1.9
1.85
1.97
1.91
1.88
1.92
1.99
1.95
1.89
1.96
1.89
1.85
1.97
1.92
1.89
1.93
1.97
1.94
1.89
1.96
1.91
1.86
1.98
1.92
1.89
1.92
1.95
1.95
1.88
1.96
1.9
1.85
1.97
1.9
1.88
1.92
1.97
1.95
1.88
1.95
1.9
1.84
1.96
1.93
1.89
1.93
1.96
1.94
1.88
1.96
1.91
1.85
1.96
1.9
1.89
1.94
1.96
1.95
1.89
1.96
1.9
1.85
1.96
1.89
1.88
1.92
1.95
1.94
1.88
1.95
1.9
1.86
1.99
1.92
1.89
1.92
1.96
1.96
1.88
1.96
1.91
1.86
1.97
1.89
1.88
1.92
1.95
1.95
1.89
1.96
1.91
1.85
1.96
1.9
1.88
1.91
1.94
1.94
1.89
1.95
1.91
1.84
1.96
1.91
1.88
1.92
1.94
1.96
1.89
1.95
1.92
1.85
1.96
1.9
1.88
1.92
1.95
1.95
1.9
1.95
1.93
1.85
1.92
1.89
1.87
1.93
1.95
1.94
1.89
1.96
1.94
1.87
1.95
1.89
1.88
1.94
1.94
1.9
1.91
1.96
1.93
1.86
1.96
1.91
1.88
1.94
1.94
1.9
1.91
1.95
1.92
1.85
1.95
1.88
1.86
1.93
1.93
1.89
1.9
1.95
1.93
1.87
1.96
1.9
1.87
1.94
1.93
1.9
1.92
1.96
1.95
1.88
1.96
1.89
1.87
1.93
1.93
1.9
1.91
1.96
1.93
1.87
1.96
1.9
1.87
1.95
1.94
1.89
1.9
1.96
1.94
1.87
1.97
1.91
1.85
1.94
1.93
1.89
1.91
1.96
1.95
1.86
1.96
1.91
1.85
1.96
1.93
1.89
1.91
1.95
1.92
1.87
1.96
1.91
1.86
1.95
1.93
1.88
1.9
1.95
1.92
1.86
1.96
1.9
1.85
1.95
1.94
1.89
1.91
1.96
1.94
1.84
1.96
1.9
1.86
1.95
1.92
1.9
1.91
1.95
1.96
1.88
1.96
1.9
1.86
1.98
1.92
1.89
1.9
1.94
1.93
1.87
1.95
1.88
1.86
1.95
1.91
1.9
1.92
1.94
1.96
1.88
1.96
1.89
1.86
1.96
1.9
1.9
1.92
1.96
1.94
1.88
1.96
1.89
1.86
1.96
1.9
1.89
1.92
1.93
1.94
1.89
1.96
1.9
1.85
1.96
1.9
1.9
1.93
1.95
1.95
1.91
1.97
1.89
1.86
1.96
1.9
1.88
1.93
1.94
1.96
1.89
1.96
1.9
1.88
1.97
1.9
1.9
1.93
1.95
1.95
1.89
1.96
1.89
1.87
1.97
1.9
1.88
1.92
1.93
1.94
1.89
1.96
1.88
1.85
1.96
1.88
1.88
1.92
1.93
1.94
1.89
1.97
1.9
1.86
1.97
1.9
1.89
1.92
1.94
1.95
1.89
1.96
1.89
1.86
1.97
1.91
1.88
1.92
1.94
1.95
1.89
1.96
1.9
1.86
1.97
1.91
1.9
1.93
1.95
1.95
1.89
1.97
1.91
1.87
2
1.9
1.89
1.92
1.93
1.94
1.89
1.97
1.9
1.86
1.96
1.89
1.89
1.92
1.96
1.95
1.9
1.96
1.91
1.86
1.96
1.91
1.9
1.93
1.94
1.91
1.89
1.96
1.9
1.86
1.93
1.89
1.89
1.92
1.94
1.94
1.89
1.96
1.9
1.88
1.97
1.89
1.89
1.92
1.94
1.94
1.91
1.96
1.89
1.85
1.96
1.89
1.88
1.92
1.94
1.95
1.89
1.96
1.9
1.85
1.97
1.9
1.9
1.92
1.93
1.93
1.87
1.95
1.89
1.85
1.96
1.88
1.86
1.9
1.92
1.92
1.87
1.94
1.87
1.83
1.95
1.88
1.87
1.93
1.93
1.93
1.88
1.96
1.9
1.86
1.98
1.91
1.9
1.93
1.95
1.96
1.9
1.98
1.91
1.89
1.96
1.94
1.95
1.94
1.99
1.95
1.88
1.98
1.9
1.89
1.96
1.94
1.92
1.93
1.96
1.94
1.89
1.98
1.91
1.87
1.96
1.92
1.9
1.92
1.96
1.94
1.88
1.97
1.9
1.87
1.96
1.93
1.91
1.93
1.96
1.94
1.88
1.96
1.9
1.86
1.96
1.92
1.9
1.91
1.94
1.93
1.87
1.96
1.89
1.86
1.94
1.93
1.89
1.91
1.96
1.95
1.87
1.96
1.91
1.86
1.95
1.94
1.88
1.9
1.96
1.96
1.87
1.95
1.91
1.85
1.95
1.92
1.89
1.91
1.96
1.95
1.87
1.95
1.92
1.85
1.97
1.93
1.89
1.91
1.96
1.95
1.89
1.95
1.95
1.84
1.95
1.92
1.88
1.91
1.96
1.95
1.87
1.96
1.91
1.86
1.96
1.95
1.89
1.92
1.97
1.95
1.88
1.96
1.92
1.86
1.97
1.93
1.89
1.92
1.96
1.95
1.87
1.94
1.89
1.83
1.94
1.9
1.87
1.9
1.95
1.94
1.87
1.96
1.91
1.85
1.97
1.93
1.88
1.91
1.96
1.94
1.88
1.96
1.91
1.84
1.96
1.91
1.87
1.91
1.96
1.96
1.88
1.96
1.9
0
1.92
1.94
1.93
1.87
1.96
1.89
1.88
1.94
1.93
1.91
1.92
1.94
1.94
1.87
1.96
1.88
1.88
1.94
1.91
1.92
1.92
1.95
1.94
1.89
1.96
1.89
1.89
1.95
1.91
1.91
1.92
1.95
1.95
1.88
1.96
1.9
1.89
1.94
1.9
1.91
1.93
1.96
1.96
1.87
1.96
1.9
1.88
1.95
1.91
1.94
1.93
1.95
1.94
1.88
1.98
1.9
1.87
1.95
1.92
1.92
1.93
1.94
1.94
1.89
1.98
1.91
1.88
1.95
1.9
1.91
1.93
1.94
1.94
1.88
1.99
1.9
1.86
1.96
1.89
1.9
1.92
1.93
1.92
1.87
1.96
1.88
1.86
1.94
1.89
1.92
1.9
1.93
1.92
1.86
1.96
1.88
1.86
1.95
1.89
1.89
1.89
1.91
1.92
1.87
1.96
1.89
1.84
1.94
1.88
1.87
1.91
1.92
1.94
1.87
1.97
1.9
1.86
1.98
1.91
1.91
1.94
1.94
1.95
1.9
1.96
1.89
1.86
1.97
1.91
1.91
1.93
1.94
1.96
1.9
1.98
1.9
1.86
1.96
1.89
1.9
1.93
1.92
1.94
1.88
1.96
1.9
1.87
1.97
1.9
1.9
1.94
1.93
1.94
1.89
1.97
1.92
1.87
1.97
1.9
1.91
1.93
1.96
1.96
1.9
1.97
1.91
1.88
1.97
1.91
1.91
1.94
1.94
1.96
1.92
1.97
1.91
1.89
1.97
1.9
1.92
1.94
1.93
1.96
1.92
1.96
1.9
1.88
1.96
1.88
1.91
1.92
1.91
1.94
1.9
1.96
1.89
1.87
1.96
1.89
1.91
1.92
1.93
1.95
1.9
1.95
1.87
1.86
1.95
1.88
1.89
1.91
1.9
1.93
1.9
1.94
1.88
1.86
1.95
1.88
1.89
1.92
1.9
1.93
1.88
1.94
1.87
1.85
1.94
1.86
1.9
1.93
1.91
1.94
1.94
1.95
1.9
1.88
1.97
1.88
1.9
1.93
1.92
1.95
1.92
1.96
1.91
1.88
1.98
1.89
1.91
1.94
1.91
1.95
1.91
1.95
1.91
1.89
1.97
1.88
1.9
1.94
1.92
1.95
1.92
1.96
1.92
1.89
1.97
1.88
1.91
1.94
1.92
1.94
1.92
1.96
1.92
1.88
1.97
1.89
1.91
1.95
1.92
1.95
1.92
1.95
1.93
1.9
1.96
1.89
1.92
1.95
1.91
1.94
1.92
1.94
1.92
1.88
1.95
1.87
1.9
1.93
1.9
1.92
1.91
1.93
1.91
1.87
1.93
1.88
1.88
1.92
1.88
1.9
1.9
1.92
1.91
1.87
1.93
1.87
1.88
1.93
1.88
1.91
1.91
1.93
1.92
1.88
1.95
1.88
1.9
1.94
1.9
1.94
1.91
1.96
1.92
1.89
1.96
1.89
1.9
1.95
1.91
1.93
1.92
1.94
1.93
1.88
1.95
1.88
1.89
1.94
1.89
1.92
1.92
1.94
1.94
1.9
1.97
1.89
1.91
1.96
1.91
1.94
1.94
1.96
1.94
1.91
1.97
1.91
1.91
1.96
1.91
1.93
1.93
1.95
1.94
1.9
1.96
1.89
1.89
1.93
1.89
1.91
1.9
1.91
1.94
1.87
1.98
1.87
1.88
1.93
1.87
1.9
1.89
1.91
1.89
1.84
1.95
1.89
1.86
1.92
1.87
1.9
1.91
1.93
1.92
1.88
1.96
1.89
1.89
1.95
1.9
1.92
1.92
1.92
1.93
1.88
1.96
1.88
1.88
2
1.89
1.91
1.92
1.92
1.92
1.89
1.96
1.89
1.88
1.95
1.9
1.92
1.96
1.94
1.95
1.9
1.96
1.91
1.89
1.96
1.91
1.93
1.93
1.94
1.96
1.91
1.96
1.9
1.9
1.96
1.91
1.93
1.93
1.93
1.95
1.89
1.95
1.89
1.9
1.93
1.88
1.9
1.9
1.86
1.92
1.87
1.93
1.88
1.86
1.93
1.88
1.9
1.9
1.89
1.92
1.91
1.94
1.89
1.87
1.94
1.87
1.9
1.91
1.91
1.94
1.89
1.96
1.9
1.89
1.96
1.91
1.92
1.93
1.93
1.96
1.89
1.96
1.9
1.88
1.96
1.9
1.92
1.93
1.96
1.95
1.9
1.95
1.9
1.88
1.96
1.89
1.91
1.92
1.92
1.95
1.93
1.97
1.91
1.89
1.98
1.91
1.93
1.95
1.94
1.96
1.91
1.97
1.91
1.88
1.99
1.89
1.93
1.91
1.91
1.94
1.9
1.97
1.9
1.87
1.96
1.88
1.91
1.92
1.91
1.93
1.88
1.95
1.87
1.84
1.94
1.86
1.87
1.89
1.9
1.91
1.87
1.94
1.88
1.86
1.96
1.88
1.89
1.9
1.91
1.94
1.9
1.95
1.9
1.88
2
1.88
1.89
1.94
1.91
1.94
1.9
1.96
1.9
1.87
1.98
1.89
1.9
1.94
1.92
1.94
1.91
1.96
1.91
1.87
1.97
1.89
1.91
1.93
1.91
1.95
1.9
1.95
1.91
1.88
1.95
1.89
1.9
1.93
1.91
1.94
1.92
1.95
1.93
1.89
1.98
1.89
1.91
1.96
1.93
1.96
1.94
1.97
1.93
1.9
1.96
1.9
1.92
1.94
1.92
1.96
1.92
1.96
1.93
1.88
1.95
1.88
1.91
1.93
1.91
1.93
1.92
1.94
1.91
1.88
1.95
1.88
1.9
1.93
1.9
1.91
1.9
1.93
1.9
1.85
1.94
1.87
1.89
1.92
1.89
1.91
1.89
1.94
1.91
1.88
1.95
1.88
1.9
1.94
1.9
1.93
1.92
1.95
1.92
1.88
1.96
1.89
1.9
1.95
1.95
1.92
1.92
1.95
1.92
1.89
1.96
1.91
1.89
1.93
1.91
1.93
1.92
1.94
1.93
1.89
1.96
1.88
1.9
1.95
1.91
1.92
1.92
1.96
1.93
1.89
1.97
1.89
1.9
1.96
1.92
1.93
1.93
1.95
1.92
1.88
1.96
1.89
1.89
1.95
1.9
1.93
1.91
1.95
1.91
1.88
1.96
1.88
1.89
1.94
1.9
1.91
1.94
1.92
1.91
1.87
1.93
1.86
1.86
1.94
1.88
1.9
1.9
1.91
1.9
1.89
1.96
1.88
1.88
1.95
1.89
1.95
1.91
1.93
1.94
1.89
1.96
1.89
1.88
1.94
1.89
1.92
1.93
1.92
1.93
1.88
1.96
1.88
1.87
1.94
1.89
1.93
1.92
1.92
1.94
1.89
1.96
1.9
1.9
1.95
1.9
1.93
1.92
1.93
1.94
1.89
1.95
1.89
1.89
1.95
1.9
1.93
1.93
1.92
1.96
1.91
1.96
1.91
1.9
1.96
1.9
1.93
1.93
1.93
1.95
1.89
1.96
1.9
1.87
1.95
1.89
1.91
1.93
1.92
1.94
1.88
1.95
1.88
1.87
1.95
1.87
1.92
1.9
1.89
1.92
1.88
1.96
1.87
1.85
1.95
1.88
1.92
1.92
1.92
1.94
1.88
1.95
1.89
1.87
1.96
1.9
1.93
1.92
1.93
1.96
1.9
1.96
1.9
1.87
1.96
1.87
1.91
1.91
1.92
1.94
1.9
1.96
1.89
1.87
1.97
1.88
1.91
1.93
1.93
1.95
1.89
1.96
1.9
1.87
1.96
1.89
1.91
1.93
1.92
1.96
1.9
1.96
1.9
1.89
1.99
1.9
1.93
1.94
1.93
1.96
1.9
1.96
1.9
1.87
1.98
1.89
1.91
1.94
1.93
1.96
1.9
1.97
1.9
1.87
2.01
1.89
1.91
1.92
1.91
1.93
1.88
1.95
1.89
1.84
1.95
1.86
1.87
1.9
1.89
1.93
1.88
1.97
1.9
1.87
2
1.87
1.9
1.96
1.91
1.96
1.92
1.96
1.91
1.87
1.97
1.88
1.9
1.92
1.91
1.96
1.91
1.95
1.92
1.88
1.97
1.89
1.91
1.93
1.91
1.95
1.9
1.94
1.91
1.88
1.96
1.88
1.92
1.96
1.92
1.96
1.93
1.96
1.92
1.89
1.96
1.89
1.92
1.94
1.93
1.95
1.93
1.96
1.94
1.89
1.98
1.89
1.91
1.94
1.92
1.95
1.91
1.96
1.93
1.88
1.95
1.88
1.9
1.92
1.9
1.92
1.9
1.95
1.91
1.87
1.94
1.86
1.88
1.92
1.89
1.9
1.9
1.92
1.89
1.85
1.94
1.87
1.88
1.92
1.9
1.93
1.9
1.94
1.92
1.88
1.96
1.89
1.9
1.94
1.91
1.93
1.93
1.95
1.93
1.88
1.96
1.9
1.91
1.95
1.91
1.92
1.92
1.95
1.92
1.88
1.97
1.89
1.9
1.94
1.9
1.96
1.9
1.96
1.92
1.87
1.97
1.88
1.89
1.94
1.9
1.92
1.91
1.96
1.92
1.88
1.97
1.88
1.88
1.94
1.9
1.9
1.92
1.95
1.92
1.88
1.97
1.89
1.89
1.94
1.91
1.93
1.91
1.94
1.92
1.88
1.96
1.88
1.89
1.95
1.9
1.92
1.91
1.93
1.92
1.89
1.96
1.88
1.88
1.94
1.89
1.91
1.93
1.93
1.89
1.89
1.95
1.89
1.89
1.94
1.89
1.92
1.93
1.96
1.94
1.89
1.97
1.9
1.89
1.95
1.89
1.92
1.92
1.91
1.92
1.89
1.95
1.9
1.89
1.95
1.89
1.92
1.92
1.92
1.94
1.89
1.96
1.92
1.89
1.96
1.9
1.92
1.93
1.93
1.94
1.89
1.95
1.9
1.88
1.95
1.89
1.91
1.92
1.92
1.93
1.89
1.95
1.89
1.88
1.96
1.89
1.92
1.93
1.94
1.96
1.91
1.98
1.92
1.89
1.97
1.92
1.93
1.94
1.94
1.96
1.91
1.94
1.91
1.89
1.97
1.9
1.96
1.93
1.92
1.95
1.9
1.99
1.89
1.87
1.97
1.88
1.91
1.92
1.92
1.93
1.88
1.95
1.88
1.87
1.96
1.87
1.89
1.9
1.93
1.94
1.88
1.95
1.87
1.85
1.94
1.86
1.88
1.88
1.87
1.9
1.87
1.95
1.88
1.86
1.96
1.86
1.9
1.91
1.91
1.95
1.89
1.97
1.89
1.87
1.97
1.89
1.9
1.93
1.92
1.94
1.9
1.96
1.9
1.87
1.97
1.89
1.91
1.93
1.92
1.95
1.9
1.97
1.91
1.88
1.98
1.89
1.91
1.96
1.92
1.95
1.93
1.95
1.91
1.88
1.97
1.88
1.91
1.94
1.91
1.95
1.9
1.94
1.9
1.88
1.95
1.88
1.89
1.91
1.88
1.95
1.95
1.94
1.92
1.88
1.96
1.87
1.9
1.94
1.9
1.93
1.91
1.94
1.91
1.88
1.96
1.88
1.92
1.93
1.91
1.97
1.92
1.96
1.92
1.88
1.96
1.88
1.91
1.92
1.9
1.94
1.92
1.94
1.92
1.88
1.96
1.88
1.91
1.93
1.9
1.94
1.92
1.94
1.92
1.87
1.95
1.88
1.9
1.93
1.91
1.93
1.91
1.94
1.92
1.88
1.96
1.89
1.9
1.93
1.9
1.92
1.91
1.94
1.92
1.88
1.95
1.89
1.9
1.94
1.91
1.93
1.91
1.95
1.93
1.88
1.95
1.91
1.9
1.93
1.89
1.92
1.91
1.96
1.94
1.88
1.99
1.89
1.89
1.95
1.91
1.92
1.91
1.95
1.92
1.87
1.96
1.88
1.9
1.94
1.9
1.92
1.91
1.94
1.93
1.88
1.96
1.88
1.93
1.93
1.9
1.92
1.91
1.95
1.94
1.89
1.96
1.89
1.89
1.95
1.9
1.92
1.91
1.96
1.93
1.88
1.97
1.89
1.9
1.95
1.91
1.92
1.91
1.94
1.93
1.88
1.96
1.88
1.89
1.94
1.89
1.92
1.91
1.93
1.93
1.89
1.96
1.91
1.89
1.93
1.9
1.91
1.92
1.92
1.92
1.89
1.93
1.88
1.89
1.94
1.9
1.92
1.92
1.92
1.92
1.89
1.95
1.89
1.88
1.94
1.89
1.92
1.94
1.93
1.94
1.89
1.96
1.89
1.89
1.94
1.9
1.93
1.94
1.93
1.95
1.89
1.96
1.89
1.89
1.94
1.89
1.92
1.92
1.93
1.94
1.89
1.96
1.9
1.88
1.98
1.9
1.92
1.92
1.92
1.94
1.89
1.96
1.9
1.88
1.95
1.89
1.87
1.91
1.92
1.93
1.88
1.95
1.89
1.88
1.95
1.89
1.91
1.92
1.92
1.94
1.89
1.96
1.9
1.88
1.95
1.88
1.9
1.91
1.92
1.94
1.89
1.96
1.9
1.88
1.98
1.89
1.91
1.92
1.92
1.94
1.89
1.96
1.9
1.87
1.95
1.88
1.91
1.96
1.92
1.96
1.89
1.97
1.9
1.87
1.97
1.89
1.91
1.92
1.92
1.94
1.89
1.96
1.89
1.87
1.97
1.89
1.88
1.92
1.92
1.95
1.89
1.98
1.9
1.87
1.98
1.9
1.91
1.93
1.93
1.95
1.9
1.96
1.9
1.89
1.96
1.88
1.91
1.92
1.91
1.94
1.9
1.95
1.9
1.87
1.96
1.88
1.9
1.92
1.92
1.95
1.9
1.95
1.89
1.86
1.95
1.9
1.9
1.92
1.91
1.95
1.91
1.94
1.91
1.87
1.96
1.9
1.89
1.92
1.91
1.96
1.91
1.96
1.92
1.87
1.96
1.91
1.9
1.93
1.95
1.95
1.96
1.96
1.93
1.88
1.97
1.89
1.9
1.96
1.92
1.96
1.9
1.95
1.92
1.87
1.97
1.89
1.9
1.93
1.92
1.95
1.91
1.97
1.91
1.86
1.96
1.88
1.89
1.92
1.91
1.94
1.9
1.95
1.92
1.87
1.96
1.89
1.9
1.93
1.91
1.94
1.9
1.95
1.92
1.87
1.96
1.89
1.91
1.93
1.91
1.93
1.94
1.95
1.93
1.87
1.97
1.89
1.91
1.94
1.91
1.93
1.91
1.96
1.95
1.88
1.96
1.9
1.9
1.95
1.92
1.93
1.91
1.96
1.94
1.87
1.96
1.9
1.89
1.95
1.92
1.92
1.91
1.96
1.94
1.87
1.96
1.89
1.89
1.94
1.91
1.91
1.9
1.95
1.93
1.86
1.96
1.88
1.88
1.94
1.9
1.92
1.91
1.94
1.95
1.88
1.96
1.9
1.88
1.94
1.93
1.92
1.92
1.94
1.96
1.87
1.94
1.89
1.88
1.94
1.89
1.9
1.9
1.92
1.92
1.87
1.94
1.89
1.88
1.93
1.9
1.91
1.91
1.94
1.94
1.87
1.95
1.89
1.89
1.94
1.91
1.93
1.92
1.94
1.94
1.88
1.96
1.9
1.88
1.94
1.91
1.92
1.93
1.96
1.94
1.88
1.96
1.89
1.87
1.94
1.9
1.91
1.92
1.93
1.95
1.88
1.96
1.9
1.87
1.95
1.9
1.88
1.92
1.93
1.94
1.88
1.96
1.9
1.88
1.95
1.9
1.91
1.92
1.93
1.95
1.88
1.95
1.89
1.87
1.95
1.89
1.92
1.92
1.92
1.95
1.88
1.96
1.9
1.87
1.96
1.9
1.91
1.92
1.92
1.94
1.87
1.96
1.89
1.87
1.96
1.9
1.91
1.92
1.93
1.96
1.89
1.97
1.9
1.87
1.96
1.9
1.94
1.93
1.93
1.95
1.88
1.96
1.89
1.87
1.96
1.89
1.9
1.91
1.93
1.94
1.88
1.96
1.89
1.86
1.96
1.88
1.89
1.92
1.91
1.94
1.87
1.96
1.89
1.86
1.97
1.89
1.89
1.91
1.92
1.95
1.89
1.97
1.9
1.87
1.98
1.9
1.91
1.92
1.92
1.95
1.89
1.96
1.9
1.87
1.97
1.89
1.91
1.92
1.92
1.96
1.9
1.96
1.9
1.88
1.96
1.88
1.9
1.91
1.91
1.95
1.89
1.95
1.9
1.87
1.95
1.88
1.91
1.92
1.92
1.96
1.91
1.96
1.91
1.87
1.98
1.9
1.93
1.94
1.93
1.96
1.9
1.95
1.9
1.87
1.97
1.88
1.9
1.92
1.91
1.95
1.9
1.96
1.92
1.87
1.96
1.89
1.9
1.92
1.92
1.96
1.9
1.96
1.92
1.86
1.96
1.88
1.89
1.93
1.92
1.95
1.93
1.96
1.95
1.87
1.97
1.89
1.9
1.93
1.91
1.94
1.9
1.95
1.92
1.86
1.96
1.9
1.89
1.93
1.91
1.95
1.9
1.96
1.92
1.83
1.97
1.88
1.89
1.93
1.91
1.94
1.9
1.95
1.92
1.86
1.96
1.9
1.89
1.93
1.93
1.94
1.91
1.95
1.95
1.85
1.95
1.89
1.89
1.95
1.91
1.94
1.91
1.95
1.94
1.86
1.96
1.9
1.89
1.96
1.93
1.93
1.92
1.96
1.95
1.87
1.97
1.91
1.9
1.95
1.91
1.92
1.91
1.95
1.94
1.87
1.96
1.89
1.9
1.94
1.9
1.92
1.91
1.95
1.95
1.89
1.96
1.93
1.91
1.96
1.91
1.93
1.92
1.94
1.94
1.87
1.96
1.89
1.88
1.93
1.9
1.91
1.91
1.92
1.93
1.86
1.94
1.88
1.88
1.93
1.89
1.91
1.94
1.95
1.96
1.89
1.96
1.9
1.89
1.95
1.92
1.93
1.93
1.95
1.96
1.89
1.97
1.9
1.88
1.94
1.9
1.93
1.91
1.93
1.93
1.88
1.94
1.9
1.87
1.93
1.9
1.91
1.91
1.92
1.93
1.86
1.94
1.89
1.87
1.92
1.9
1.91
1.9
1.93
1.94
1.87
1.99
1.89
1.87
1.94
1.9
1.9
1.9
1.93
1.93
1.86
1.96
1.89
1.86
1.93
1.89
1.9
1.9
1.94
1.93
1.85
1.94
1.88
1.86
1.94
1.91
1.9
1.91
1.96
1.94
1.88
1.96
1.9
1.88
1.95
1.91
1.91
1.92
1.94
1.95
1.88
1.96
1.89
1.86
1.96
1.91
1.94
1.93
1.96
1.96
1.89
1.98
1.92
1.88
1.97
1.93
1.92
1.93
1.93
1.97
1.89
1.97
1.89
1.85
1.96
1.89
1.9
1.91
1.92
1.94
1.87
1.96
1.89
1.85
1.96
1.9
1.9
1.92
1.93
1.96
1.88
1.96
1.9
1.87
1.96
1.9
1.91
1.93
1.93
1.96
1.9
1.95
1.91
1.87
1.96
1.9
1.9
1.92
1.92
1.94
1.88
1.94
1.89
1.85
1.94
1.88
1.89
1.91
1.92
1.95
1.89
1.96
1.92
1.87
1.96
1.89
1.91
1.92
1.92
1.96
1.89
1.96
1.91
1.87
1.99
1.91
1.91
1.93
1.95
1.96
1.9
2
1.91
1.87
1.98
1.9
1.92
1.93
1.93
1.96
1.9
1.96
1.91
1.87
1.97
1.89
1.91
1.92
1.91
1.95
1.88
1.95
1.89
1.85
1.95
1.87
1.88
1.91
1.9
1.93
1.88
1.94
1.89
1.84
1.96
1.88
1.89
1.92
1.91
1.94
1.91
1.95
1.92
1.85
1.96
1.89
1.89
1.92
1.92
1.95
1.92
1.96
1.92
1.87
1.97
1.88
1.89
1.94
1.93
1.94
1.9
1.96
1.93
1.86
1.97
1.89
1.89
1.94
1.93
1.94
1.91
1.97
1.93
1.87
1.98
1.9
1.89
1.94
1.91
1.92
1.89
1.96
1.93
1.87
1.97
1.9
1.89
1.94
1.92
1.93
1.9
1.95
1.93
1.87
1.97
1.89
1.89
1.95
1.92
1.94
1.91
1.95
1.94
1.87
1.97
1.9
1.89
1.93
1.91
1.96
1.9
1.94
1.94
1.87
1.95
1.9
1.9
1.96
1.91
1.92
1.91
1.94
1.94
1.87
1.95
1.89
1.89
1.93
1.9
1.93
1.9
1.95
1.94
1.87
1.95
1.89
1.88
1.92
1.89
1.91
1.94
1.94
1.95
1.88
1.96
1.89
1.88
1.94
1.92
1.92
1.92
1.94
1.94
1.86
1.96
1.88
1.88
1.93
1.9
1.91
1.9
1.94
1.93
1.86
1.96
1.9
1.88
1.94
1.91
1.91
1.92
1.95
1.96
1.88
1.99
1.89
1.88
1.95
1.91
1.91
1.91
1.95
1.93
1.87
1.96
1.89
1.88
1.95
1.92
1.91
1.92
1.94
1.94
1.87
1.98
1.94
1.88
1.95
1.9
1.9
1.92
1.94
1.94
1.87
1.97
1.89
1.87
1.95
1.9
1.9
1.91
1.95
1.94
1.88
1.97
1.89
1.87
1.96
1.92
1.92
1.93
1.95
1.93
1.88
1.98
1.9
1.87
1.96
1.9
1.9
1.91
1.93
1.93
1.87
1.98
1.9
1.86
1.96
1.91
1.91
1.92
1.94
1.94
1.88
1.97
1.9
1.86
1.96
1.91
1.9
1.92
1.93
1.93
1.87
1.96
1.89
1.86
1.96
1.9
1.91
1.92
1.92
1.96
1.88
1.96
1.89
1.86
1.95
1.89
1.91
1.91
1.92
1.94
1.88
1.96
1.89
1.87
1.95
1.89
1.9
1.91
1.91
1.94
1.89
1.95
1.89
1.86
1.95
1.89
1.91
1.92
1.91
1.94
1.88
1.96
1.91
1.88
1.97
1.9
1.91
1.96
1.92
1.95
1.9
1.97
1.91
1.87
1.97
1.9
1.94
1.93
1.94
1.96
1.9
1.96
1.9
1.88
1.97
1.9
1.92
1.94
1.94
1.96
1.9
1.96
1.9
1.87
1.96
1.89
1.9
1.92
1.92
1.95
1.89
1.96
1.9
1.88
1.96
1.89
1.9
1.93
1.96
1.95
1.89
1.97
1.9
1.86
1.97
1.88
1.91
1.92
1.91
1.94
1.88
1.95
1.89
1.85
1.98
1.89
1.9
1.93
1.92
1.95
1.89
1.96
1.91
1.86
1.97
1.9
1.88
1.92
1.91
1.94
1.88
1.96
1.91
1.86
1.98
1.88
1.9
1.94
1.92
1.93
1.89
1.96
1.92
1.87
1.98
1.89
1.9
1.95
1.92
1.95
1.9
1.96
1.92
1.87
1.98
1.89
1.89
1.94
1.91
1.94
1.9
1.96
1.92
1.87
1.97
1.89
1.9
1.94
1.92
1.95
1.91
1.96
1.94
1.88
1.97
1.89
1.9
1.93
1.91
1.95
1.91
1.95
1.94
1.88
1.96
1.89
1.9
1.93
1.91
1.94
1.91
1.95
1.94
1.87
1.95
1.88
1.89
1.92
1.9
1.93
1.91
1.94
1.94
1.87
1.96
1.89
1.89
1.93
1.91
1.94
1.91
1.95
1.93
1.87
1.95
1.88
1.92
1.93
1.91
1.92
1.91
1.94
1.93
1.86
1.95
1.88
1.88
1.93
1.9
1.92
1.91
1.95
1.94
1.87
1.92
1.89
1.89
1.94
1.91
1.93
1.91
1.94
1.93
1.87
1.95
1.92
1.88
1.93
1.89
1.92
1.91
1.94
1.94
1.87
1.96
1.9
1.89
1.95
1.91
1.91
1.9
1.95
1.93
1.87
1.98
1.89
1.88
1.96
1.91
1.92
1.9
1.95
1.94
1.87
1.95
1.89
1.88
1.95
1.9
1.91
1.91
1.94
1.94
1.87
1.97
1.89
1.86
1.94
1.91
1.91
1.92
1.94
1.93
1.9
1.97
1.89
1.88
1.94
1.89
1.9
1.9
1.94
1.94
1.87
1.97
1.89
1.87
1.96
1.91
1.91
1.91
1.94
1.94
1.88
1.96
1.9
1.87
1.95
1.9
1.91
1.91
1.93
1.94
1.88
1.95
1.89
1.87
1.94
1.9
1.91
1.94
1.92
1.96
1.88
1.96
1.9
1.87
1.95
1.9
1.92
1.92
1.93
1.96
1.89
1.97
1.91
1.87
1.95
1.9
1.91
1.92
1.94
1.96
1.89
1.96
1.9
1.87
1.95
1.9
1.91
1.91
1.93
1.95
1.89
1.96
1.9
1.87
1.96
1.89
1.9
1.92
1.92
1.95
1.88
1.96
1.9
1.86
1.96
1.89
1.9
1.91
1.93
1.95
1.88
1.96
1.91
1.87
1.96
1.9
1.91
1.92
1.92
1.96
1.88
1.96
1.9
1.86
1.97
1.9
1.9
1.94
1.92
1.95
1.88
1.96
1.89
1.86
1.96
1.89
1.9
1.91
1.91
1.94
1.89
1.96
1.9
1.87
1.97
1.89
1.92
1.92
1.93
1.96
1.88
1.96
1.9
1.86
1.97
1.9
1.9
1.92
1.92
1.95
1.88
1.96
1.9
1.86
1.98
1.89
1.93
1.93
1.93
1.95
1.89
1.96
1.9
1.87
1.98
1.89
1.93
1.93
1.92
1.96
1.91
1.97
1.91
1.86
1.98
1.9
1.9
1.94
1.93
1.95
1.9
1.96
1.92
1.86
1.96
1.9
1.9
1.93
1.91
1.95
1.89
1.95
1.91
1.87
1.96
1.87
1.88
1.92
1.89
1.94
1.88
1.93
1.91
1.87
1.95
1.89
1.9
1.91
1.91
1.96
1.91
1.95
1.91
1.86
1.96
1.89
1.9
1.93
1.94
1.96
1.9
1.94
1.93
1.87
1.95
1.91
1.9
1.91
1.93
1.95
1.91
1.95
1.94
1.87
1.96
1.91
1.9
1.92
1.94
1.96
1.9
1.94
1.93
1.87
1.95
1.9
1.9
1.91
1.96
1.94
1.89
1.95
1.93
1.86
1.95
1.9
1.9
1.91
1.89
1.94
1.89
1.95
1.93
1.86
1.96
1.92
1.9
1.92
1.92
1.94
1.9
1.95
1.94
1.86
1.95
1.9
1.89
1.92
1.93
1.94
1.89
1.96
1.94
1.87
1.96
1.9
1.88
1.93
1.93
1.95
1.89
1.98
1.94
1.86
1.95
1.9
1.89
1.93
1.93
1.94
1.89
1.96
1.94
1.86
1.96
1.91
1.88
1.93
1.93
1.92
1.93
1.95
1.95
1.87
1.96
1.91
1.88
1.94
1.92
1.92
1.9
1.95
1.95
1.85
1.96
1.91
1.88
1.95
1.94
1.92
1.9
1.95
1.95
1.87
1.95
1.9
1.88
1.93
1.91
1.91
1.91
1.94
1.94
1.88
1.94
1.9
1.86
1.92
1.92
1.9
1.9
1.93
1.95
1.87
1.94
1.92
1.86
1.93
1.92
1.91
1.91
1.94
1.95
1.87
1.94
1.93
1.86
1.93
1.92
1.9
1.9
1.93
1.94
1.88
1.95
1.92
1.87
1.94
1.92
1.92
1.91
1.94
1.96
1.88
1.95
1.91
1.88
1.95
1.88
1.9
1.92
1.95
1.95
1.87
1.95
1.9
1.87
1.95
1.91
1.9
1.91
1.96
1.95
1.88
1.95
1.91
1.85
1.95
1.92
1.91
1.91
1.95
1.95
1.89
1.95
1.91
1.86
1.95
1.91
1.9
1.91
1.93
1.96
1.88
1.95
1.91
1.85
1.96
1.91
1.9
1.93
1.95
1.95
1.89
1.96
1.92
1.87
1.96
1.92
1.9
1.88
1.94
1.95
1.88
1.95
1.91
1.87
1.97
1.91
1.9
1.91
1.94
1.97
1.89
1.96
1.91
1.86
1.96
1.9
1.89
1.91
1.94
1.95
1.88
1.95
1.9
1.85
1.96
1.91
1.9
1.91
1.96
1.95
1.88
1.95
1.91
1.87
1.97
1.91
1.9
1.91
1.93
1.94
1.89
1.94
1.9
1.84
1.95
1.9
1.89
1.86
1.93
1.95
1.92
1.95
1.91
1.86
1.95
1.91
1.9
1.91
1.93
1.95
1.91
1.94
1.93
1.85
1.94
1.9
1.9
1.92
1.93
1.95
1.89
1.95
1.92
1.86
1.95
1.9
1.89
1.92
1.94
1.95
1.9
1.95
1.94
1.87
1.96
1.91
1.9
1.92
1.94
1.96
1.93
1.95
1.93
1.86
1.96
1.91
1.9
1.92
1.93
1.95
1.89
1.96
1.93
1.87
1.98
1.91
1.9
1.93
1.93
1.95
1.9
1.96
1.93
1.86
1.96
1.9
1.88
1.92
1.92
1.93
1.88
1.94
1.92
1.85
1.94
1.89
1.92
1.92
1.93
1.93
1.89
1.96
1.92
1.86
1.95
1.9
1.88
1.93
1.93
1.94
1.9
1.96
1.93
1.86
1.96
1.9
1.88
1.92
1.93
1.96
1.9
1.98
1.93
1.85
1.96
1.9
1.9
1.94
1.93
1.92
1.88
1.94
1.92
1.84
1.94
1.88
1.85
1.91
1.91
1.89
1.87
1.92
1.91
1.84
1.94
1.89
1.87
1.93
1.91
1.94
1.89
1.95
1.94
1.86
1.96
1.9
1.91
1.94
1.92
1.92
1.9
1.94
1.94
1.86
1.94
1.89
1.87
1.93
1.9
1.9
1.88
1.92
1.96
1.85
1.95
1.89
1.86
1.91
1.91
1.9
1.9
1.94
1.95
1.87
1.96
1.92
1.9
1.95
1.94
1.94
1.93
1.97
1.96
1.89
1.97
1.94
1.92
1.96
1.95
1.94
1.94
1.97
1.97
1.92
1.97
1.93
1.89
1.96
1.94
1.93
1.92
1.96
1.95
1.89
1.96
1.92
1.86
1.93
1.92
1.9
1.9
1.93
1.93
1.87
1.93
1.89
1.85
1.94
1.91
1.91
1.93
1.95
1.97
1.9
1.97
1.96
1.88
1.96
1.93
1.92
1.93
1.96
1.96
1.88
1.96
1.93
1.88
1.96
1.93
1.91
1.92
1.95
1.96
1.88
1.96
1.92
1.87
1.96
1.93
1.91
1.92
1.96
1.97
1.89
1.96
1.92
1.87
1.96
1.92
1.93
1.92
1.95
1.95
1.87
1.96
1.91
1.85
1.96
1.9
1.92
1.9
1.93
1.94
1.86
1.95
1.9
1.83
1.95
1.9
1.88
1.9
1.93
1.96
1.87
1.96
1.91
1.85
1.96
1.9
1.89
1.91
1.94
1.94
1.87
1.96
1.91
1.84
1.96
1.9
1.88
1.91
1.93
1.94
1.87
1.95
1.92
1.85
1.95
1.9
1.89
1.94
1.93
1.95
1.88
1.95
1.92
1.86
1.96
1.91
1.9
1.91
1.94
1.95
1.9
1.95
1.91
1.85
1.95
1.91
1.89
1.91
1.93
1.96
1.9
1.95
1.92
1.87
1.96
1.88
1.9
1.92
1.94
1.96
1.9
1.95
1.92
1.86
1.96
1.93
1.89
1.91
1.93
1.95
1.88
1.94
1.91
1.85
1.96
1.91
1.88
1.91
1.93
1.95
1.88
1.95
1.93
1.87
1.96
1.9
1.9
1.91
1.95
1.94
1.88
1.95
1.92
1.87
1.96
1.9
1.89
1.93
1.93
1.95
1.89
1.95
1.93
1.86
1.97
1.92
1.9
1.93
1.95
1.96
1.89
1.96
1.94
1.85
1.96
1.92
1.9
1.93
1.94
1.94
1.9
1.96
1.94
1.86
1.96
1.9
1.88
1.92
1.92
1.93
1.88
1.94
1.92
1.84
1.95
1.9
1.87
1.92
1.92
1.91
1.88
1.93
1.91
1.83
1.93
1.88
1.85
1.9
1.91
1.91
1.86
1.93
1.91
1.84
1.94
1.89
1.86
1.91
1.9
1.89
1.87
1.95
1.93
1.86
1.96
1.9
1.88
1.94
1.94
1.93
1.91
1.97
1.96
1.88
1.98
1.94
1.9
1.95
1.95
1.95
1.91
1.96
1.95
1.87
1.94
1.91
1.88
1.97
1.94
1.93
1.92
1.96
1.96
1.88
1.97
1.92
1.9
1.96
1.96
1.95
1.94
1.98
1.98
1.9
1.98
1.96
1.9
1.98
1.93
1.93
1.91
1.94
1.94
1.86
1.94
1.89
1.87
1.91
1.9
1.89
1.91
1.92
1.92
1.85
1.94
1.88
1.85
1.92
1.9
1.9
1.89
1.93
1.92
1.85
1.93
1.88
1.85
1.9
1.89
1.89
1.88
1.93
1.9
1.83
1.92
1.88
1.85
1.91
1.9
1.9
1.89
1.94
1.93
1.87
1.96
1.89
1.86
1.93
1.92
1.9
1.92
1.96
1.94
1.89
1.97
1.93
1.88
1.96
1.93
1.91
1.92
1.96
1.96
1.88
1.97
1.91
1.89
1.96
1.94
1.92
1.92
1.96
1.94
1.87
1.96
1.9
1.86
1.96
1.92
1.9
1.92
1.94
1.87
1.79
1.94
1.99
2
2.09
2
1.94
1.9
1.88
1.89
1.87
1.99
1.93
1.84
1.96
1.96
1.94
1.91
1.9
1.89
1.86
1.99
1.94
1.91
2.01
1.94
1.89
1.87
1.9
1.91
1.87
1.97
1.92
1.88
1.94
1.87
1.84
1.85
1.87
1.87
1.82
1.91
1.9
1.86
1.96
1.94
1.95
1.96
1.98
2.01
1.95
2
1.97
1.95
2.03
2
2
2.02
2.07
2.09
2.03
2.1
2.02
1.97
2.03
1.98
1.98
2.01
2.04
2
1.93
2.02
2.04
2.02
2.03
2
1.96
1.94
1.93
1.91
1.9
1.89
1.87
1.85
1.85
1.82
1.8
1.76
1.71
1.65
1.64
1.67
1.65
1.63
1.66
1.7
1.73
1.77
1.89
1.96
2
2.05
1.97
1.92
1.92
1.93
1.92
1.92
1.87
1.85
1.83
1.84
1.85
1.86
1.9
1.92
1.91
1.9
1.91
1.91
1.92
1.95
1.96
1.96
1.98
1.98
1.97
1.97
1.97
1.96
1.94
1.94
1.93
1.91
1.91
1.94
1.96
1.96
1.94
1.91
1.88
1.89
1.92
1.93
1.96
1.96
1.94
1.9
1.88
1.88
1.9
1.93
1.94
1.92
1.91
1.91
1.91
1.92
1.91
1.91
1.91
1.94
1.95
1.93
1.93
1.92
1.9
1.9
1.93
1.94
1.93
1.93
1.93
1.9
1.89
1.89
1.89
1.88
1.93
1.91
1.9
1.9
1.89
1.91
1.88
1.9
1.9
1.9
1.92
1.92
1.9
1.9
1.91
1.9
1.9
1.92
1.91
1.9
1.92
1.93
1.9
1.89
1.91
1.91
1.9
1.92
1.93
1.93
1.92
1.93
1.92
1.92
1.93
1.95
1.94
1.94
1.96
1.94
1.95
1.95
1.95
1.95
1.96
1.95
1.94
1.95
1.95
1.93
1.93
1.94
1.94
1.92
1.94
1.93
1.93
1.94
1.95
1.93
1.95
1.95
1.95
1.93
1.94
1.96
1.95
1.95
1.96
1.96
1.9
1.95
1.94
1.93
1.94
1.95
1.93
1.96
1.94
1.93
1.93
1.95
1.94
1.92
1.93
1.93
1.92
1.92
1.95
1.91
1.88
1.89
1.89
1.87
1.87
1.87
1.87
1.86
1.86
1.86
1.86
1.88
1.88
1.88
1.88
1.9
1.89
1.87
1.9
1.89
1.89
1.91
1.91
1.89
1.9
1.9
1.89
1.89
1.91
1.9
1.92
1.91
1.91
1.9
1.9
1.93
1.92
1.91
1.93
1.93
1.91
1.91
1.92
1.91
1.92
1.92
1.92
1.9
1.92
1.92
1.91
1.91
1.92
1.91
1.91
1.93
1.92
1.91
1.9
1.92
1.89
1.89
1.9
1.91
1.93
1.93
1.91
1.89
1.94
1.95
1.91
1.89
1.92
1.92
1.89
1.91
1.93
1.9
1.88
1.91
1.92
1.91
1.92
1.89
1.88
1.92
1.92
1.9
1.92
1.93
1.91
1.89
1.91
1.92
1.89
1.92
1.92
1.91
1.91
1.92
1.9
1.9
1.94
1.92
1.9
1.92
1.93
1.91
1.9
1.92
1.93
1.93
1.92
1.93
1.93
1.93
1.94
1.93
1.92
1.93
1.92
1.92
1.94
1.93
1.91
1.92
1.93
1.91
1.92
1.94
1.93
1.91
1.93
1.95
1.93
1.94
1.94
1.93
1.93
1.95
1.95
1.93
